,range,angle
0,1.94325,0.335158
1,1.93725,0.326704
2,1.93125,0.318796
3,1.92625,0.31088699999999997
4,1.92225,0.302706
5,1.91625,0.294797
6,1.90925,0.28688800000000003
7,1.90425,0.27870700000000004
8,1.90125,0.27079899999999996
9,1.89525,0.262617
10,1.89325,0.254436
11,1.88825,0.24652800000000002
12,1.88325,0.238619
13,1.87825,0.230438
14,1.87525,0.22253
15,1.86925,0.214621
16,1.86825,0.20644
17,1.86525,0.19853099999999999
18,1.85925,0.19062300000000001
19,1.85825,0.18244200000000002
20,1.85425,0.174533
21,1.85125,0.166352
22,1.84825,0.158171
23,1.84525,0.15026199999999998
24,1.84325,0.142353
25,1.84225,0.134172
26,1.84025,0.12626300000000001
27,1.83725,0.118355
28,1.83525,0.110174
29,1.83325,0.102265
30,1.83225,0.0943568
31,1.83025,0.0861757
32,1.82725,0.0782669
33,1.82625,0.07035860000000001
34,1.82525,0.0621775
35,1.82625,0.0542687
36,1.82425,0.0463603
37,1.82325,0.038179199999999996
38,1.82125,0.023725299999999998
39,1.82125,0.015816999999999998
40,1.82125,0.00790865
41,1.82225,1.74846e-07
42,1.82025,-0.00790865
43,1.82125,-0.016089700000000002
44,1.82125,-0.023998099999999998
45,1.82025,-0.0319069
46,1.82225,-0.039815300000000005
47,1.82125,-0.047996300000000006
48,1.82225,-0.0559052
49,1.82225,-0.0638135
50,1.82325,-0.0717223
51,1.82525,-0.0799034
52,1.82625,-0.08781180000000001
53,1.82625,-0.0957206
54,1.82925,-0.103629
55,1.83125,-0.11153699999999998
56,1.83125,-0.119719
57,1.83525,-0.127627
58,1.83525,-0.135536
59,1.83725,-0.14344400000000002
60,1.83725,-0.151625
61,1.84025,-0.15953399999999998
62,1.84225,-0.167443
63,1.84425,-0.175351
64,1.84725,-0.183532
65,1.85025,-0.191441
66,1.85225,-0.199076
67,1.85525,-0.206985
68,1.85725,-0.214894
69,1.86125,-0.223075
70,1.86525,-0.23098400000000002
71,1.86725,-0.23889200000000002
72,1.86925,-0.2468
73,1.87425,-0.25498200000000004
74,1.87925,-0.26289
75,1.88325,-0.27079899999999996
76,1.88725,-0.27870700000000004
77,1.89325,-0.28688800000000003
78,1.89725,-0.294252
79,1.90125,-0.30216
80,1.90525,-0.310068
81,1.90925,-0.317977
82,1.91625,-0.326158
83,1.91925,-0.334067
84,1.92325,-0.341976
85,1.93125,-0.34988400000000003
86,1.93625,-0.358065
87,1.94025,-0.36597399999999997
88,1.94525,-0.373609
89,1.95325,-0.38151799999999997
90,1.95825,-0.38969899999999996
91,1.96325,-0.397608
92,1.97125,-0.405516
93,1.97725,-0.413425
94,1.98425,-0.42160600000000004
95,1.99325,-0.429242
96,1.99825,-0.43715
97,2.00625,-0.44505900000000004
98,2.01325,-0.45324
99,2.02125,-0.461149
100,2.02925,-0.46905699999999995
101,2.03725,-0.476966
102,2.04325,-0.48514700000000005
103,2.05425,-0.497964
104,2.05925,-0.5058729999999999
105,2.07025,-0.513781
106,2.07625,-0.52169
107,2.08525,-0.5295989999999999
108,2.09525,-0.53778
109,2.10325,-0.545415
110,2.11325,-0.5533239999999999
111,2.12925,-0.561232
112,0.0,-0.5664140000000001
113,2.92025,-0.574595
114,2.93725,-0.582504
115,2.95025,-0.5904119999999999
116,2.97025,-0.598321
117,2.98325,-0.605956
118,2.99925,-0.614137
119,3.01725,-0.622046
120,3.03225,-0.629955
121,3.05225,-0.637863
122,3.06725,-0.645772
123,3.08425,-0.653953
124,3.09925,-0.661589
125,3.12125,-0.669497
126,3.14125,-0.6774060000000001
127,3.16125,-0.685314
128,3.18125,-0.693496
129,3.20325,-0.701404
130,3.22125,-0.70904
131,3.24325,-0.7169479999999999
132,3.26725,-0.724857
133,3.28825,-0.733038
134,3.27025,-0.740947
135,3.24125,-0.748855
136,3.21625,-0.756764
137,3.19125,-0.764945
138,3.16125,-0.773126
139,3.13425,-0.781035
140,3.10725,-0.7889430000000001
141,3.07925,-0.797125
142,3.05325,-0.8053060000000001
143,3.03125,-0.813214
144,3.00525,-0.8211229999999999
145,2.98325,-0.829031
146,2.96325,-0.8372120000000001
147,2.93925,-0.8451209999999999
148,2.91225,-0.85303
149,2.89325,-0.8609379999999999
150,2.86925,-0.8688469999999999
151,2.84825,-0.877028
152,2.83225,-0.8849370000000001
153,2.84425,-0.8931180000000001
154,2.87525,-0.9078440000000001
155,2.90725,-0.915752
156,2.93425,-0.9236610000000001
157,2.96925,-0.9315690000000001
158,3.00025,-0.939478
159,3.02825,-0.9473870000000001
160,3.06125,-0.9552950000000001
161,3.09825,-0.9632040000000001
162,3.12925,-0.9711120000000001
163,3.16925,-0.9790200000000001
164,3.20625,-0.987202
165,3.24225,-0.9948379999999999
166,3.28225,-1.00275
167,3.32325,-1.0109299999999999
168,3.36325,-1.0185600000000001
169,3.40625,-1.02647
170,3.45425,-1.0343799999999999
171,3.49825,-1.04256
172,3.54625,-1.0502
173,3.59425,-1.05811
174,3.64425,-1.06629
175,3.69525,-1.07392
176,3.74825,-1.0818299999999998
177,3.80625,-1.0900100000000001
178,3.86025,-1.09765
179,0.0,-1.10556
180,3.971,-1.11374
181,0.0,-1.12137
182,0.0,-1.1292799999999998
183,4.184,-1.13719
184,0.0,-1.14537
185,0.0,-1.15301
186,0.0,-1.1609200000000002
187,0.0,-1.1691
188,0.0,-1.1767299999999998
189,0.0,-1.18464
190,0.0,-1.19282
191,0.0,-1.20046
192,0.0,-1.2083700000000002
193,0.0,-1.21655
194,5.04225,-1.22446
195,5.01925,-1.23237
196,5.01825,-1.24027
197,4.99325,-1.2481799999999998
198,4.98725,-1.25609
199,4.96025,-1.264
200,4.96025,-1.2721799999999999
201,4.95225,-1.28009
202,4.92725,-1.288
203,4.92025,-1.2959100000000001
204,4.92425,-1.30382
205,4.95725,-1.3119999999999998
206,5.001,-1.3259
207,0.0,-1.33381
208,5.10525,-1.34145
209,5.08525,-1.3499
210,5.08125,-1.35781
211,5.05725,-1.36572
212,5.07325,-1.3739
213,5.04425,-1.38181
214,5.03825,-1.38972
215,5.03925,-1.3979
216,5.03425,-1.40581
217,5.01325,-1.41372
218,5.02325,-1.4219
219,5.00825,-1.42981
220,5.00825,-1.4379899999999999
221,4.99325,-1.4459
222,5.00125,-1.4538
223,4.98825,-1.46199
224,4.97725,-1.46989
225,4.98625,-1.4778
226,4.96925,-1.4859799999999999
227,4.98325,-1.49389
228,0.0,-1.5018
229,4.85125,-1.5099799999999999
230,0.0,-1.51789
231,4.94725,-1.5258
232,4.93325,-1.53398
233,4.94125,-1.54189
234,4.93125,-1.55007
235,4.94225,-1.55798
236,4.93525,-1.56589
237,4.93525,-1.57407
238,4.92825,-1.58198
239,4.92925,-1.58989
240,4.92125,-1.59807
241,4.93325,-1.60598
242,4.92525,-1.61388
243,4.92825,-1.6220700000000001
244,4.93025,-1.6299700000000001
245,4.94125,-1.63816
246,4.94625,-1.6460599999999999
247,4.94125,-1.6539700000000002
248,4.93525,-1.66188
249,4.94025,-1.6700599999999999
250,4.95125,-1.6779700000000002
251,4.96225,-1.6858799999999998
252,0.0,-1.69406
253,4.75625,-1.7022400000000002
254,4.74025,-1.71015
255,4.75025,-1.71833
256,4.74825,-1.7262400000000002
257,4.76225,-1.73442
258,4.76725,-1.74778
259,4.77925,-1.7556900000000002
260,4.78125,-1.7633299999999998
261,4.78725,-1.77151
262,4.79425,-1.77942
263,4.79525,-1.7876
264,4.80425,-1.79551
265,4.80225,-1.8036900000000002
266,0.0,-1.81187
267,4.67525,-1.82005
268,4.68825,-1.8279599999999998
269,4.69625,-1.83614
270,4.71225,-1.84405
271,4.72225,-1.8522299999999998
272,4.73325,-1.8601400000000001
273,4.73325,-1.86832
274,4.75425,-1.8762299999999998
275,4.7219999999999995,-1.88441
276,0.0,-1.89232
277,0.0,-1.90077
278,0.0,-1.90868
279,0.0,-1.91714
280,0.0,-1.92668
281,3.074,-1.93513
282,0.0,-1.94304
283,0.0,-1.9515
284,2.89125,-1.9594
285,2.83125,-1.96786
286,2.77425,-1.97577
287,2.71725,-1.98422
288,2.66825,-1.9924
289,2.62025,-2.00058
290,2.57025,-2.0087599999999997
291,2.52825,-2.01695
292,0.0,-2.02513
293,2.43425,-2.0333099999999997
294,2.43825,-2.04122
295,2.43525,-2.0494
296,2.44625,-2.0573099999999998
297,2.45725,-2.06549
298,2.44825,-2.07312
299,2.40925,-2.0813
300,2.37225,-2.08949
301,2.33725,-2.09767
302,2.30225,-2.10585
303,2.27025,-2.11403
304,2.23525,-2.12221
305,2.20425,-2.1303900000000002
306,2.17425,-2.13857
307,2.14725,-2.14675
308,2.11925,-2.1549400000000003
309,2.09125,-2.16857
310,2.06325,-2.1764799999999997
311,2.03625,-2.18466
312,2.01225,-2.19257
313,1.99025,-2.20102
314,1.96425,-2.20893
315,1.94125,-2.21711
316,1.91925,-2.22502
317,1.89925,-2.2332
318,1.87925,-2.24138
319,1.85625,-2.2492900000000002
320,1.83525,-2.25747
321,0.0,-2.26593
322,0.0,-2.27493
323,1.61925,-2.2831099999999998
324,1.60525,-2.29102
325,1.60725,-2.2992
326,1.59025,-2.3071099999999998
327,0.0,-2.31665
328,0.0,-2.32592
329,1.30125,-2.33411
330,1.28825,-2.34229
331,1.27725,-2.35047
332,1.26825,-2.35838
333,1.25725,-2.3668299999999998
334,1.24525,-2.37474
335,1.23725,-2.38292
336,1.22725,-2.39083
337,1.21625,-2.39928
338,1.20825,-2.40719
339,1.19925,-2.4153700000000002
340,1.19025,-2.42328
341,1.18225,-2.43173
342,1.17325,-2.4396400000000003
343,1.16425,-2.44782
344,1.15625,-2.45573
345,1.14925,-2.46391
346,1.14025,-2.4721
347,1.13325,-2.48
348,1.12525,-2.48846
349,1.11925,-2.4969099999999997
350,1.11125,-2.50509
351,1.10425,-2.513
352,1.09925,-2.5211799999999998
353,1.09125,-2.52909
354,1.08425,-2.53727
355,1.07825,-2.54545
356,1.07125,-2.55336
357,1.06725,-2.56154
358,1.06125,-2.56945
359,1.05425,-2.57763
360,1.04825,-2.58581
361,1.04325,-2.60081
362,1.03725,-2.6089900000000004
363,1.03225,-2.6169
364,1.02725,-2.6253599999999997
365,1.02225,-2.63327
366,1.01725,-2.6411700000000002
367,1.01325,-2.6496299999999997
368,1.00825,-2.65754
369,1.00325,-2.66545
370,0.99925,-2.6739
371,0.99425,-2.68181
372,0.99025,-2.68972
373,0.98725,-2.69817
374,0.98425,-2.70608
375,0.97825,-2.71426
376,0.97525,-2.72244
377,0.97125,-2.73035
378,0.96825,-2.73853
379,0.96325,-2.7467099999999998
380,0.96125,-2.75462
381,0.95825,-2.7628
382,0.95425,-2.77071
383,0.95025,-2.77889
384,0.94825,-2.78707
385,0.94525,-2.79498
386,0.94125,-2.8031599999999997
387,0.93925,-2.81134
388,0.93725,-2.81925
389,0.93425,-2.82743
390,0.93225,-2.83534
391,0.92925,-2.8435200000000003
392,0.92725,-2.8517
393,0.92425,-2.85961
394,0.92325,-2.8675200000000003
395,0.91925,-2.8759799999999998
396,0.91825,-2.88388
397,0.91525,-2.8917900000000003
398,0.91425,-2.89997
399,0.91225,-2.90788
400,0.91025,-2.91606
401,0.90825,-2.92424
402,0.90625,-2.93215
403,0.90425,-2.94033
404,0.90325,-2.9485200000000003
405,0.90225,-2.9567
406,0.90025,-2.96488
407,0.89825,-2.97306
408,0.89825,-2.98124
409,0.89625,-2.98942
410,0.89525,-2.9976
411,0.89425,-3.00578
412,0.89325,-3.01397
413,0.89225,-3.0218700000000003
414,0.89125,-3.0300599999999998
415,0.89025,-3.03824
416,0.88925,-3.0466900000000003
417,0.88825,-3.05487
418,0.88725,-3.06278
419,0.88725,-3.07096
420,0.88625,-3.07914
421,0.88525,-3.08732
422,0.88525,-3.0955
423,0.88525,-3.1036900000000003
424,0.88525,-3.11159
425,0.88525,-3.11978
426,0.88325,-3.12796
427,0.88425,-3.13614
428,0.88325,3.1388700000000003
429,0.88325,3.13096
430,0.88425,3.12278
431,0.88325,3.11459
432,0.88325,3.10641
433,0.88425,3.09823
434,0.88425,3.09005
435,0.88425,3.0821400000000003
436,0.88525,3.07396
437,0.88525,3.0657799999999997
438,0.88625,3.0576
439,0.88625,3.04942
440,0.88725,3.04124
441,0.88725,3.03333
442,0.88725,3.02542
443,0.88925,3.01724
444,0.88925,3.00906
445,0.89125,3.00115
446,0.89125,2.99297
447,0.89225,2.9847900000000003
448,0.89425,2.9766
449,0.89525,2.96842
450,0.89525,2.96024
451,0.89625,2.95206
452,0.89825,2.94388
453,0.89925,2.9357
454,0.90025,2.9277900000000003
455,0.90125,2.91988
456,0.90325,2.9117
457,0.90625,2.90352
458,0.90625,2.89534
459,0.90825,2.8871599999999997
460,0.90925,2.87898
461,0.91225,2.87107
462,0.91325,2.86289
463,0.91525,2.8547
464,0.91725,2.84652
465,0.92025,2.83834
466,0.92025,2.83016
467,0.92525,2.82225
468,0.92625,2.81434
469,0.92825,2.8061599999999998
470,0.93225,2.79825
471,0.93425,2.79007
472,0.93725,2.78189
473,0.93925,2.77371
474,0.94225,2.76553
475,0.94525,2.75762
476,0.94825,2.7494400000000003
477,0.95125,2.74126
478,0.95425,2.73335
479,0.95725,2.72517
480,0.96025,2.71699
481,0.96525,2.7090799999999997
482,0.96725,2.7014400000000003
483,0.97125,2.69326
484,0.97525,2.68508
485,0.97825,2.6771700000000003
486,0.98225,2.66899
487,0.98525,2.6608099999999997
488,0.99025,2.6529
489,0.99425,2.64472
490,0.99825,2.63654
491,1.00325,2.62863
492,1.00725,2.62045
493,1.01125,2.61227
494,1.01725,2.60436
495,1.02125,2.59645
496,1.02725,2.58827
497,1.03025,2.5803599999999998
498,1.03625,2.57218
499,1.04125,2.5639999999999996
500,1.04625,2.55609
501,1.05225,2.54791
502,1.05725,2.54
503,1.06225,2.53182
504,1.06825,2.5236400000000003
505,1.07425,2.51573
506,1.08025,2.50755
507,1.08625,2.4996400000000003
508,1.09225,2.49173
509,1.09925,2.48355
510,1.10525,2.4756400000000003
511,1.11125,2.46746
512,1.11925,2.45955
513,1.12725,2.4513700000000003
514,1.13325,2.44346
515,1.14025,2.43528
516,1.14725,2.4271
517,1.15525,2.41919
518,1.16325,2.4110099999999997
519,1.17125,2.4031
520,1.17925,2.39492
521,1.18825,2.38674
522,1.19625,2.37883
523,1.20525,2.3711900000000004
524,1.21325,2.36301
525,1.22325,2.35538
526,1.23225,2.3472
527,1.24125,2.3395599999999996
528,1.25225,2.33138
529,1.26125,2.3237400000000004
530,1.27225,2.31556
531,1.28225,2.30793
532,1.29425,2.2997400000000003
533,1.30525,2.2921099999999996
534,1.31425,2.28393
535,1.32625,2.27629
536,1.34025,2.26838
537,1.35125,2.26047
538,1.36425,2.25257
539,1.37725,2.2446599999999997
540,1.39125,2.23675
541,1.40525,2.22884
542,1.41825,2.2212
543,1.43225,2.21302
544,1.44625,2.20539
545,1.46225,2.1972099999999997
546,1.47725,2.1895700000000002
547,1.49425,2.18139
548,1.50925,2.17375
549,1.52525,2.16584
550,1.54325,2.15794
551,1.56025,2.1503
552,1.58025,2.1421200000000002
553,1.59925,2.13448
554,1.61725,2.1263
555,1.63725,2.1186700000000003
556,1.65925,2.11076
557,1.68025,2.10285
558,1.70125,2.0949400000000002
559,1.72425,2.08703
560,1.74625,2.07912
561,1.77225,2.0712099999999998
562,1.79725,2.06331
563,1.82225,2.0554
564,1.85025,2.0472200000000003
565,1.87525,2.03931
566,1.90325,2.0314
567,1.93325,2.0232200000000002
568,1.96425,2.01531
569,1.99525,2.0074
570,2.02725,1.99922
571,2.06325,1.99158
572,2.09825,1.9834
573,2.13325,1.9754900000000002
574,2.17025,1.9675900000000002
575,2.21125,1.9594
576,2.25325,1.9515
577,2.29425,1.9435900000000002
578,2.33425,1.9354099999999999
579,2.35425,1.9275
580,0.0,1.92123
581,0.0,1.9133200000000001
582,0.0,1.9054099999999998
583,0.0,1.89723
584,0.0,1.88932
585,3.27825,1.8811400000000003
586,3.26625,1.87296
587,3.25525,1.8647799999999999
588,3.24425,1.8565900000000002
589,3.24125,1.8484099999999999
590,3.23325,1.84023
591,3.23925,1.8323200000000002
592,3.23625,1.82414
593,0.0,1.8159599999999998
594,0.0,1.80805
595,0.0,1.80014
596,0.0,1.65861
597,0.0,1.7851400000000002
598,4.52325,1.7769599999999999
599,4.50925,1.76878
600,4.49725,1.76033
601,4.50225,1.75242
602,4.52025,1.74478
603,0.0,1.7366
604,0.0,1.72869
605,0.0,1.58552
606,0.0,1.57761
607,0.0,1.5694299999999999
608,0.0,1.56125
609,0.0,1.5530700000000002
610,0.0,1.5448899999999999
611,0.0,1.53698
612,0.0,1.5288
613,0.0,1.65752
614,8.912,1.6493400000000003
615,0.0,1.64143
616,0.0,1.49635
617,0.0,1.48817
618,0.0,1.6177
619,0.0,1.4718
620,0.0,1.4636200000000001
621,0.0,1.45571
622,0.0,1.44753
623,0.0,1.43935
624,0.0,1.43117
625,0.0,1.42299
626,0.0,1.41508
627,0.0,1.4069
628,0.0,1.39872
629,0.0,1.3905399999999999
630,0.0,1.38236
631,0.0,1.37445
632,0.0,1.36627
633,0.0,1.35808
634,0.0,1.3499
635,0.0,1.34172
636,0.0,1.33381
637,0.0,1.3256299999999999
638,0.0,1.31745
639,0.0,1.3092700000000002
640,0.0,1.3010899999999999
641,0.0,1.29345
642,0.0,1.28554
643,0.0,1.27736
644,0.0,1.26918
645,0.0,1.261
646,0.0,1.25309
647,0.0,1.24491
648,0.0,1.2367299999999999
649,0.0,1.22855
650,0.0,1.22064
651,0.0,1.21246
652,0.0,1.20428
653,0.0,1.1961
654,0.0,1.18791
655,0.0,1.18001
656,0.0,1.17182
657,0.0,1.16364
658,0.0,1.29182
659,0.0,1.28364
660,0.0,1.27545
661,0.0,1.2672700000000001
662,0.0,1.25882
663,0.0,1.25091
664,0.0,1.24273
665,0.0,1.22691
666,1.901,1.2187299999999999
667,1.88,1.21028
668,1.868,1.2023700000000002
669,1.858,1.1941899999999999
670,1.8619999999999999,1.18601
671,1.871,1.17782
672,1.889,1.16992
673,1.9140000000000001,1.16201
674,0.0,1.1543700000000001
675,1.9880000000000002,1.14592
676,1.9680000000000002,1.13801
677,1.9680000000000002,1.12983
678,1.969,1.12165
679,1.9680000000000002,1.1134700000000002
680,1.9780000000000002,1.1052799999999998
681,0.0,0.968931
682,0.0,1.0951899999999999
683,4.047,1.08701
684,0.0,1.07883
685,0.0,1.07065
686,0.0,1.06274
687,3.80525,1.05429
688,3.74925,1.0463799999999999
689,3.69425,1.0382
690,3.63725,1.0300200000000002
691,3.59125,1.0218399999999999
692,3.53825,1.01393
693,3.49125,1.00547
694,3.44525,0.997292
695,3.40125,0.989384
696,3.385,0.981202
697,0.0,0.9678399999999999
698,1.83125,0.959658
699,1.82525,0.95175
700,1.82025,0.9435690000000001
701,1.82425,0.93566
702,1.86425,0.927751
703,1.84825,0.9195700000000001
704,1.86725,0.9116620000000001
705,0.0,0.775853
706,0.0,0.8999360000000001
707,2.95325,0.891481
708,2.92725,0.8835729999999999
709,0.0,0.871574
710,1.90225,0.863665
711,1.90225,0.855484
712,1.89825,0.847575
713,1.89825,0.8393940000000001
714,1.90225,0.8314860000000001
715,1.91425,0.823304
716,1.949,0.815669
717,0.0,0.810487
718,2.66225,0.8023060000000001
719,2.63925,0.794125
720,2.61425,0.785944
721,2.59625,0.777489
722,2.57125,0.7690359999999999
723,2.55025,0.7608550000000001
724,2.53125,0.7526729999999999
725,2.50925,0.744492
726,2.49225,0.736038
727,2.47325,0.727857
728,2.45425,0.719676
729,2.43525,0.711494
730,2.41725,0.70304
731,2.40425,0.694587
732,2.38625,0.686405
733,2.36625,0.6782239999999999
734,2.35525,0.670043
735,2.33825,0.661589
736,2.32025,0.653408
737,2.30825,0.6452260000000001
738,2.29425,0.637045
739,2.27825,0.628591
740,2.26325,0.62041
741,2.25025,0.611956
742,2.23625,0.603775
743,2.22325,0.595594
744,2.21125,0.5871390000000001
745,2.19825,0.578958
746,2.18825,0.5707770000000001
747,2.17525,0.562596
748,2.16325,0.554415
749,2.15225,0.5459609999999999
750,2.14325,0.53778
751,2.13225,0.5293260000000001
752,2.11925,0.5211439999999999
753,2.11025,0.5129630000000001
754,2.10225,0.504782
755,2.09325,0.496328
756,2.08325,0.48814700000000005
757,2.07325,0.479966
758,2.06225,0.47178400000000004
759,2.05425,0.463603
760,2.04725,0.45514899999999997
761,2.03525,0.44696800000000003
762,2.02625,0.43906000000000006
763,2.01925,0.430878
764,2.01325,0.42296999999999996
765,2.00425,0.414789
766,1.99725,0.406607
767,1.99025,0.398426
768,1.98425,0.390245
769,1.97525,0.382064
770,1.96725,0.374155
771,1.96225,0.36597399999999997
772,1.95825,0.35779299999999997
773,1.95025,0.344157
